Temp,E,E_std,M,M_std,M_th,C,C_std,C_th,X,X_std
1.0,-0.9985757861328125,2.706129355968306e-05,0.9992735437011722,1.40056909570439e-05,0.9992757519570612,0.0058774005858686,0.00029536959635470734,-0.5331515713322278,0.001580228928323777,8.026259768509193e-05
1.0303030303030303,-0.9981931420898437,3.273217305354881e-05,0.9990759606933595,1.7252399462557864e-05,0.9990743828673202,0.007040198450052177,0.0004149320701065116,-0.5212007394169967,0.0019702237617826436,0.00011854507570327793
1.0606060606060606,-0.9977266979980467,3.90515804096481e-05,0.9988336767578125,2.047175174280255e-05,0.9988320091833017,0.00839703628650927,0.00043666795141706147,-0.5089539412649581,0.0024419315739235446,0.00012884878025842806
1.1818181818181819,-0.9948830700683593,5.792458956171632e-05,0.997338233642578,3.1872073277575227e-05,0.9973384893801557,0.015298474001503035,0.0007822740147634692,-0.45668803710792355,0.0052222417225199855,0.00027411557860871797
1.2424242424242424,-0.9927293505859375,7.373954407878268e-05,0.9961835546875,4.0237892811881345e-05,0.9961870910556672,0.019981493108559945,0.0011647766461745056,-0.42832622809048504,0.007429786780477759,0.0004593619891232078
1.303030303030303,-0.9899917980957033,7.966430680897384e-05,0.9946971875,4.447658436029636e-05,0.9946872194071207,0.0253695995027043,0.0013135732764700426,-0.3982383778005934,0.01023725170359602,0.000556712629869864
1.3636363636363638,-0.986505460205078,9.184741938608183e-05,0.9927683020019529,5.4600811110815e-05,0.9927699495803408,0.03160842176024727,0.0016889813746235147,-0.36620070741448885,0.01395686300473729,0.0007767255807454966
1.4242424242424243,-0.9822202783203126,0.00012628731714299626,0.9903503076171876,7.634216070219303e-05,0.9903562744387484,0.0387348697489752,0.0020383912494930457,-0.3319428839604284,0.01886439998702546,0.0011250768331117725
1.4848484848484849,-0.9770264611816408,0.00012577449336770915,0.9873569140625,7.598404191963874e-05,0.9873543142735284,0.04721079714307794,0.002759035813910438,-0.2951341384422505,0.025228510999710414,0.0016125366407142292
1.5454545454545454,-0.9707566577148435,0.0001606773583354636,0.9836494824218751,0.00010724137878891225,0.9836552933894177,0.056101829208709805,0.0030086395986315515,-0.25536378990601716,0.03347611289003266,0.00199298266005705
1.606060606060606,-0.9633246887207031,0.00019072986311805828,0.9791369885253904,0.00012976701929192324,0.9791277016185896,0.06662113172399019,0.004611818998497043,-0.21211323133084192,0.04415901485289035,0.0036721547027197933
1.6666666666666667,-0.9545000866699219,0.0002166882383977934,0.9735815490722658,0.0001534046163642955,0.9736086674403005,0.07862088541367993,0.00540829453741534,-0.1647144501914566,0.058940179788627575,0.004444399511194019
1.7272727272727273,-0.9442408459472655,0.00029329027690164786,0.9668774475097658,0.0002312765353514346,0.9668908525208443,0.09101164622296572,0.006291062073033843,-0.11228648292168886,0.07836552553057693,0.0059503016124283084
1.7878787878787878,-0.9322342956542968,0.0003073883020737574,0.9586604675292968,0.00027373329097178927,0.9587017940181989,0.10707179056383234,0.006955306478716076,-0.053634021392808436,0.10754653239392165,0.008803347731451548
1.8484848484848486,-0.9182829821777344,0.00038411557223327615,0.9486050878906249,0.00035056074611084594,0.948669775564349,0.12408382261454207,0.008739440734507475,0.012922583497696791,0.14788127982810692,0.014238254965555423
1.9090909090909092,-0.9021436694335938,0.0004038162075076883,0.9362549401855468,0.00046211522130259157,0.9362639806661803,0.14316323242457707,0.01031708098142074,0.08985046658703166,0.20736294277712833,0.022238167583912203
1.9696969696969697,-0.8833323229980469,0.0006247219969194337,0.9206216076660158,0.0007872306713789539,0.9206811627511036,0.16520608753294236,0.0117895361899992,0.18098934584675214,0.3070561747917477,0.039917073334853594
2.0303030303030303,-0.8612867041015625,0.0007877071161007611,0.9004736267089843,0.0012075657982914948,0.9006077946648289,0.1935023457574507,0.017818995296968843,0.29280679862150866,0.4809109984473365,0.07487313069532352
2.090909090909091,-0.8353815722656249,0.0009406296431658143,0.8737431506347656,0.0020911093151507612,0.873642668819075,0.23011818185198127,0.024392361976274982,0.4375269547517037,0.8203321783324549,0.19037504739921232
2.1515151515151514,-0.8040657275390624,0.0017819194674454338,0.8345787219238281,0.006336722873782228,0.8345391960470678,0.27541233538872917,0.03246275824438009,0.642982361279801,1.6844757978105755,0.8250236183846786
2.212121212121212,-0.7642551440429686,0.0027927164496269787,0.7674800854492188,0.013852934618450156,0.7670179122107826,0.3474293330855295,0.06676774721410958,1.000885005115426,4.525845148422163,3.4600939936556085
2.2727272727272725,-0.7026002319335936,0.00819044927531709,0.48337365844726565,0.1385737662735593,0.0,0.40074644959104605,0.12100046957536979,0.0,25.418297490511605,21.48525137562738
2.3333333333333335,-0.6437998681640625,0.003879068661368872,0.13837471069335938,0.0764486689156581,0.0,0.3356851794595013,0.061261070107069424,0.0,26.44659842189628,20.68898793555203
2.393939393939394,-0.6054991638183596,0.001923752167523817,0.09028861572265624,0.03203277426792334,0.0,0.2701403011905073,0.03763220001149699,0.0,20.297879192065615,12.339795149220427
2.4545454545454546,-0.5735182531738282,0.001375559033027437,0.05959852661132812,0.015205586173521914,0.0,0.23575724288297537,0.026466137191779905,0.0,11.155342090187625,5.461415176148858
2.515151515151515,-0.5466039965820313,0.0011799018895981802,0.04636490600585938,0.0091145694181268,0.0,0.2020621326398887,0.01771864078649312,0.0,7.198849095116042,3.015758393875311
2.5757575757575757,-0.5228903759765626,0.0009525638027110844,0.038420070800781254,0.007075729780452826,0.0,0.1821084343531038,0.01649922076991741,0.0,5.088823643608456,1.7544110685109766
2.6363636363636367,-0.5017907958984374,0.0008261278733243747,0.03433662231445312,0.005319851436575685,0.0,0.16318965330052543,0.013894737185008837,0.0,4.013931360052279,1.1975916947825749
2.6969696969696972,-0.48261325683593753,0.0007303896925468647,0.031120871582031247,0.004081863445478968,0.0,0.15109498995986004,0.012436087224264435,0.0,3.1602075277370627,0.7688689175475071
2.757575757575758,-0.4653899975585938,0.0006974120989097546,0.02755508056640625,0.0031939545490124567,0.0,0.13631711396270194,0.010666085657595942,0.0,2.5184919788208275,0.5940897369069108
2.8181818181818183,-0.4494558471679687,0.0005860887427638613,0.0259310400390625,0.0026813911888589176,0.0,0.12621614458261127,0.009130009599621448,0.0,2.2296843400113406,0.46644858530712785
2.878787878787879,-0.4346997546386719,0.0005727981344501205,0.02404661010742187,0.002185503442044993,0.0,0.11543024745754991,0.007849841401527932,0.0,1.833360009570286,0.3819745744923941
2.9393939393939394,-0.4213095568847657,0.00047095307069862136,0.022418813476562497,0.0018478251300336902,0.0,0.10673209460706824,0.006531749510970449,0.0,1.5803324213048184,0.29969039117018387
3.0,-0.40867298095703125,0.0005232040613002859,0.021233276367187495,0.001519671064382479,0.0,0.09993247855903267,0.006452568325306464,0.0,1.3774762769222004,0.2049764955678373
3.0606060606060606,-0.39701917724609376,0.0005039246399059522,0.020347785644531255,0.001653126958890955,0.0,0.09392376710384934,0.005441816415378852,0.0,1.2479221503939124,0.21834054701675565
3.121212121212121,-0.38597698486328125,0.0004423569093307875,0.01906940063476563,0.0015494896428701857,0.0,0.08730190630772387,0.005319192384149598,0.0,1.0681419624466446,0.1892726911313774
3.1818181818181817,-0.37551637207031247,0.00041847953220618085,0.0185114111328125,0.0012541613774372912,0.0,0.08206055527682948,0.004510493602656175,0.0,0.9897591563320312,0.1301442844953919
3.2424242424242427,-0.3658069091796875,0.0004825369706097358,0.017474467773437502,0.0009862766424238068,0.0,0.0775479758828281,0.00475156671224791,0.0,0.8766105478861529,0.11235036222940475
3.303030303030303,-0.35663421752929686,0.00043924223404326893,0.016964429931640622,0.0009524085627392058,0.0,0.07352676804235529,0.003993910567498837,0.0,0.8141033176071752,0.11534325251195775
3.3636363636363638,-0.34792510742187505,0.0003580640252284452,0.016471740722656253,0.0009333281785728245,0.0,0.06939456772148837,0.004089209067903041,0.0,0.7610688274677999,0.08419455815635263
3.4242424242424243,-0.3397237084960937,0.00033645812557300613,0.01586014404296875,0.000912910976436068,0.0,0.06590636367600802,0.003842457544586653,0.0,0.6859401246815803,0.08401621760956735
3.484848484848485,-0.33197841308593745,0.0003741707887436641,0.015550109863281251,0.0008288295473965162,0.0,0.06232137736279304,0.0036318363726178054,0.0,0.642170224048446,0.07297316678454518
3.5454545454545454,-0.324498623046875,0.0003730507332487462,0.015156660156249996,0.0008611239000474823,0.0,0.05942078970651361,0.0030627569135208,0.0,0.5952532761583534,0.076728597183786
3.606060606060606,-0.3174772180175781,0.0003680371468569521,0.014621760253906251,0.0008418776794063861,0.0,0.05680510574359526,0.0027754665232721126,0.0,0.5596030607217944,0.0755315294849326
3.666666666666667,-0.31073216796875,0.0003300688615571262,0.014462255859375002,0.0007475600853424839,0.0,0.05399227022400321,0.0027841079531977404,0.0,0.5316706040904652,0.05721510159361814
3.7272727272727275,-0.3043481079101562,0.00032291250628693367,0.014052137451171873,0.0006024854916034152,0.0,0.05153058222199994,0.002677960034762527,0.0,0.4920613682256931,0.04176624402392787
3.787878787878788,-0.29819159667968753,0.0003324689848854482,0.013795114746093748,0.0007213555323045017,0.0,0.049620973030199966,0.0020353995977145226,0.0,0.46748643791695316,0.05406189643615699
3.8484848484848486,-0.2923254235839844,0.0003170755746307758,0.013400954589843752,0.0005424811559526845,0.0,0.047008691190774735,0.002196407655155827,0.0,0.4361037206080447,0.038517729040408906
3.909090909090909,-0.2866535595703126,0.00029696547229912483,0.013308239746093752,0.0005747820074264855,0.0,0.04507888520153733,0.0020896421036063276,0.0,0.4218547882089162,0.043415032522637405
3.9696969696969697,-0.2812555859375,0.000264057137993538,0.01299632080078125,0.0006621892641241132,0.0,0.04364084432540523,0.0022152329548888214,0.0,0.3959600660331808,0.04191805386008298
4.03030303030303,-0.2760801745605469,0.00028852150181286066,0.012726103515625002,0.0004909138570612956,0.0,0.041689156415788756,0.001940345743762101,0.0,0.3729973726397659,0.03198277855676167
4.090909090909091,-0.27113704467773436,0.00031507341705094556,0.0126861083984375,0.0005640831605397968,0.0,0.04063377648840578,0.0019343904902992637,0.0,0.36292494660492625,0.03395529566044795
4.151515151515151,-0.26624456665039065,0.00028884116978087655,0.012355972900390628,0.0005669700927463539,0.0,0.03880705261335385,0.0018994142222486673,0.0,0.3436708634296768,0.03206067202665823
4.212121212121213,-0.26166567749023434,0.00027437446001940367,0.01219214599609375,0.0005046396970460737,0.0,0.03713428151401672,0.0015324455811916776,0.0,0.3282051036484093,0.027338860475524526
4.272727272727273,-0.2572183178710937,0.00029388353397897306,0.012033425292968752,0.0005290483699011234,0.0,0.03568997585315653,0.0020819132788409784,0.0,0.31500351644344243,0.025696207184467995
4.333333333333334,-0.2529085571289062,0.000280569873048827,0.011887371826171875,0.0004173741635170381,0.0,0.03446407886684062,0.0016220072668940593,0.0,0.30424527257643474,0.02263650259688053
4.3939393939393945,-0.2487810693359375,0.00026259821262492294,0.0117687353515625,0.0005268856456355351,0.0,0.033615663947573066,0.0017266139595007658,0.0,0.29308261774865296,0.027070742608918664
4.454545454545455,-0.24480195800781246,0.0002954337312834457,0.011511517333984374,0.000427549794882737,0.0,0.032327556290557447,0.0013781289419691422,0.0,0.27946310009441766,0.022752737003308012
4.515151515151516,-0.240891357421875,0.0002615466055604031,0.01150368408203125,0.00045140114920333164,0.0,0.031391075964202785,0.0014966331645703676,0.0,0.27246571503873473,0.022174825528206918
4.575757575757576,-0.23722289672851563,0.00024319956597966278,0.011310858154296877,0.000431535034857782,0.0,0.030214823275981705,0.0014199715094167353,0.0,0.2575441926526121,0.02006876489363457
4.636363636363637,-0.23358110229492188,0.00027586747293732185,0.011189821777343751,0.0004040279142398581,0.0,0.029519224898805846,0.0015353416892138335,0.0,0.24981188147834324,0.021086232368242683
4.696969696969697,-0.23007143676757813,0.000254922255051938,0.011104750976562501,0.0004077034381591427,0.0,0.0280995663695458,0.0015502937541563278,0.0,0.2447351133026084,0.018992299946840645
4.757575757575758,-0.22669993774414063,0.0002315040088345351,0.010851104736328126,0.0004416043501643214,0.0,0.02743941616644916,0.0013455667110481317,0.0,0.23091563029233117,0.018839830179084607
4.818181818181818,-0.22339532104492185,0.0002700375842800712,0.0108886669921875,0.00037230728729656333,0.0,0.026500907795701262,0.0012676800903975557,0.0,0.22897633372125584,0.017024498142675547
4.878787878787879,-0.22017043579101564,0.00024388001061631935,0.010660255126953127,0.0003661961262853635,0.0,0.02554869370511462,0.0011134732341365726,0.0,0.21675951648784753,0.01597184789132736
4.9393939393939394,-0.21707487915039064,0.00020703521731551974,0.010680469970703122,0.00041350470023982286,0.0,0.025114345931681575,0.0011932854387896093,0.0,0.2122081172262779,0.017028168759197063
5.0,-0.2141178405761719,0.0002649458203930508,0.010530279541015623,0.0003217174993618541,0.0,0.024389163775878662,0.001307858810139374,0.0,0.206556741012207,0.013098238370676222
5.0606060606060606,-0.21121757324218748,0.00023758454544639337,0.010472077636718752,0.0003467352755915939,0.0,0.02357636190166605,0.0010704538863361103,0.0,0.20332833959963856,0.015021826652963524
5.121212121212121,-0.20837930541992183,0.00024035196720289563,0.010406076660156251,0.00032050934961707034,0.0,0.02299178540074208,0.0010534867943876151,0.0,0.19758455369224412,0.013737970254952794
5.181818181818182,-0.20558151977539063,0.00026324699908895915,0.01024419189453125,0.0003442329214471507,0.0,0.022416586293070074,0.0009695574573404347,0.0,0.19087287118481022,0.0143502971931541
5.242424242424242,-0.20293201904296873,0.00020981600882681613,0.010209750976562501,0.00033884052274159743,0.0,0.021671095881156698,0.0008963730511034011,0.0,0.18532453645298957,0.013750388186317223
5.303030303030303,-0.20032448852539061,0.0002012979222151757,0.010110466308593748,0.0003086397686314303,0.0,0.021234194946272048,0.0008859536811804712,0.0,0.18145411599617747,0.014641276312090598
5.363636363636363,-0.19780124267578125,0.00022400531950290451,0.010008770751953125,0.00029337241649211393,0.0,0.020793307100289593,0.000930170978392836,0.0,0.17443448456588484,0.0122764754282579
5.424242424242425,-0.19528991088867187,0.0002514039377321944,0.009960865478515626,0.0003159951150766895,0.0,0.02002144637725383,0.0009335445793444626,0.0,0.1705080570356554,0.010944101871146812
5.484848484848485,-0.19290587402343745,0.00022920957309006398,0.009965848388671877,0.0003399451711107015,0.0,0.019625358052199685,0.0007825493228045566,0.0,0.16922317941245735,0.011988868899793963
5.545454545454546,-0.19055271728515624,0.00025346947649349666,0.009840631103515624,0.00028041059925883703,0.0,0.01913221003114838,0.0008397491180654333,0.0,0.16411025561335324,0.010845562298027222
5.606060606060606,-0.18825287353515618,0.00022001085356198227,0.009782093505859376,0.00033492288227388094,0.0,0.01859570523487967,0.000781589406077806,0.0,0.15906098961981366,0.011064280394697005
5.666666666666667,-0.18601545532226563,0.00020911228429299278,0.0097101220703125,0.00025100853557055686,0.0,0.01826846427395574,0.0008346247819601812,0.0,0.15522841996495862,0.009673300425876065
5.7272727272727275,-0.18384445312500003,0.0002531713332168236,0.009648912353515626,0.00031417810053592363,0.0,0.017680442680987875,0.0008231669023363815,0.0,0.150037722402615,0.010638176961680616
5.787878787878788,-0.18171204956054685,0.00024705308749802,0.009603656005859374,0.00031240178442353743,0.0,0.01723014090844997,0.00081245666950963,0.0,0.1483275793653494,0.010736243076845082
5.848484848484849,-0.17960662231445312,0.00022587371792176208,0.00959775634765625,0.0003031128725496754,0.0,0.01694979142563542,0.0007427332372531217,0.0,0.1469012665800073,0.009625240200563002
5.909090909090909,-0.17765041259765624,0.00021036654616804327,0.009476572265625,0.0003015021558679774,0.0,0.016320250065039912,0.0008054239966309574,0.0,0.14348198463754508,0.009324074530772004
5.96969696969697,-0.17569422973632812,0.00022846535718626927,0.009452823486328126,0.0003302291066394982,0.0,0.016113648707537204,0.0007346148465263808,0.0,0.1396782546142454,0.010267440302310001
6.03030303030303,-0.1737290380859375,0.000203110266723366,0.00939853515625,0.00026701847385134797,0.0,0.01580515777639961,0.0007689389925764557,0.0,0.1372837458237231,0.008905294752267118
6.090909090909091,-0.1718433020019531,0.00020644893376360339,0.009309334716796876,0.0002485948437769172,0.0,0.015490747411256023,0.000791732865512826,0.0,0.1327797546289427,0.008697693456389214
6.151515151515151,-0.16997209228515622,0.00021652541944053346,0.009281170654296877,0.00032111743058873724,0.0,0.015066809195176438,0.0006956667036225658,0.0,0.13039551019400158,0.009091491496924843
6.212121212121212,-0.16815834106445315,0.00022047259057388066,0.009278197021484375,0.00029796547409071165,0.0,0.014742795146609169,0.0006892814523360751,0.0,0.13001142405700983,0.009178121038788548
6.2727272727272725,-0.16641323852539064,0.00020980734552316635,0.009209114990234376,0.00028963152848557105,0.0,0.014380556349212708,0.0006456390604896608,0.0,0.12595605083874692,0.007288421310172322
6.333333333333334,-0.16469372924804687,0.00023692042535160995,0.009169505615234375,0.0002933971157737461,0.0,0.014113529100703575,0.000717977714063006,0.0,0.12396699040514493,0.007797180049234755
6.3939393939393945,-0.16298448486328126,0.00020281634097877875,0.009133485107421875,0.0002723978536964288,0.0,0.013968305212516826,0.0005512487023237048,0.0,0.120576761655123,0.00821184121377817
6.454545454545455,-0.1613210705566406,0.0002045887135731652,0.009068980712890626,0.0002641456135157748,0.0,0.013536801826359433,0.0006783838211953587,0.0,0.11983366653261857,0.006918937195886072
6.515151515151516,-0.1597577465820313,0.00020735895055147265,0.009050950927734376,0.00024518546617485103,0.0,0.013124617844230056,0.0005085093552725399,0.0,0.11753196499964796,0.007289493756003324
6.575757575757576,-0.15812198608398437,0.00020228708180292698,0.008981484375000001,0.0002455134054319242,0.0,0.01302966666124235,0.0006070752065402465,0.0,0.11409352163531464,0.007269161062369181
6.636363636363637,-0.1565810437011719,0.00018284799043425577,0.009034349365234375,0.00025779419972463764,0.0,0.012743831482049807,0.0005875877418770968,0.0,0.11502188035621119,0.006642005766024345
6.696969696969697,-0.15506911865234374,0.00019602129884294757,0.008933811035156248,0.0002636941200084495,0.0,0.01243192934666659,0.0005502975454336535,0.0,0.11095108284780647,0.007161003614486672
6.757575757575758,-0.153558984375,0.00020824128279009073,0.0088455224609375,0.0002286628897321876,0.0,0.012118890565442653,0.0006277015781740117,0.0,0.10836383718007722,0.005841178924695019
6.818181818181818,-0.15207263305664062,0.00021723822920265978,0.008899263916015625,0.00024352140274450955,0.0,0.011940507094680258,0.0005219460743694985,0.0,0.10797674412099606,0.0067541876034831775
6.878787878787879,-0.1506380139160156,0.00020507038929836084,0.00883026611328125,0.00022606420666665015,0.0,0.011731696814962238,0.00046394534141546714,0.0,0.10566548474908367,0.006053277476552674
6.9393939393939394,-0.14924700317382814,0.00022065421001232516,0.00876489501953125,0.0002847323912286788,0.0,0.011451684115644966,0.0005264239065722959,0.0,0.10328756957609085,0.006643725162873673
7.0,-0.1478793762207031,0.00021230480427462354,0.00879404052734375,0.0002590572574416332,0.0,0.01127052821274124,0.0005706088359928779,0.0,0.10237342622279576,0.006514320766228083
